MinStep,CellMinStep,AtomMinStep,FinalStep,Energy,EDiff
1,66,10066,10066,84.208014430571950015,49915.7919855694
2,10086,20086,20086,79.02167550704785981,5.1863389235241
3,20088,30088,30088,76.849669089402340205,2.1720064176456
4,30092,40092,40092,76.542212239568556242,0.307456849833699
5,40097,50097,50097,76.27334947794595621,0.2688627616226
6,50105,60105,60105,76.971487453552455804,0.6981379756065
7,60110,70110,70110,75.351906612658623885,1.6195808408939
8,70115,80115,80115,75.346301153968042286,0.00560545869059581
9,80120,90120,90120,75.342777013437853384,0.00352414053010364
10,90126,94852,94852,75.33950212331561147,0.00327489012229876
11,94857,104857,104857,75.33738750726720923,0.00211461604840224
12,104862,114862,114862,75.335535462932568862,0.00185204433459774
13,114875,123824,123824,75.332291576450629123,0.00324388648199658
14,123829,133829,133829,75.330642547373642515,0.00164902907700082
15,133834,140607,140607,75.328411649106854497,0.00223089826670275
16,140614,150614,150614,75.326521156047462568,0.00189049305939193
17,150621,158613,158613,75.324911376761562565,0.0016097792859
18,158619,165726,165726,75.323249657643202681,0.00166171911840252
19,165734,175734,175734,75.321418505615028494,0.00183115202820261
20,175740,185740,185740,75.319525298062345087,0.00189320755269762
21,185745,195745,195745,75.317985938283825931,0.00153935977850495
22,195752,202485,202485,75.316210146000571513,0.00177579228319757
23,202508,212508,212508,75.310727938484433253,0.0054822075161951
24,212520,222520,222520,75.30773513783577755,0.00299280064859886
25,222526,232526,232526,75.306359794240137262,0.00137534359571134
26,232531,239588,239588,75.304260239744678529,0.00209955449538768
27,239594,249594,249594,75.303199071401010656,0.00106116834371051
28,249600,257187,257187,75.301958759093281515,0.00124031230770072
29,257194,263676,263676,75.299928198380598587,0.00203056071269714
30,263682,273682,273682,75.298326135436568052,0.00160206294400211
31,273706,283706,283706,75.294494702362456451,0.00383143307409739
32,283717,293717,293717,75.292044694898535795,0.00245000746400592
33,293724,303724,303724,75.289863162204554214,0.00218153269389632
34,303730,310272,310272,75.288093974051363944,0.00176918815319027
35,310277,318697,318697,75.286849504215240358,0.00124446983620885
36,318702,328702,328702,75.285162633177932889,0.00168687103729326
37,328706,334960,334960,75.283445620859936298,0.0017170123180108
38,334964,344084,344084,75.280846455140661533,0.0025991657191895
39,344089,354089,354089,75.278881283694815352,0.00196517144590302
40,354094,364094,364094,75.277527771183812888,0.00135351251100246
41,364099,370084,370084,75.275952646551559155,0.00157512463219689
42,370096,378554,378554,75.271950176866212701,0.0040024696854033
43,378566,388208,388208,75.269423278280228828,0.00252689858599808
44,388212,395725,395725,75.267328445991253716,0.00209483228890406
45,395732,403043,403043,75.265513047892525833,0.00181539809879894
46,403055,413055,413055,75.26059607288090092,0.00491697501159649
47,413081,423081,423081,75.255480122859651715,0.00511595002120657
48,423086,433086,433086,75.253939279970921916,0.00154084288880085
49,433092,443092,443092,75.252645461616097577,0.00129381835479592
50,443097,451261,451261,75.250446464043093897,0.00219899757300368
51,451267,455744,455744,75.248552277779324982,0.00189418626379734
52,455748,459629,459629,75.246334872405569172,0.00221740537369897
53,459634,469110,469110,75.244914756356067187,0.00142011604950198
54,469115,479115,479115,75.243379694485568621,0.00153506187049857
55,479126,489126,489126,75.240490275684237531,0.00288941880140214
56,489132,497826,497826,75.238935061030346674,0.00155521465389086
57,497856,507856,507856,75.233637234997871701,0.00529782603240392
58,507861,515115,515115,75.232101129886089552,0.00153610511179636
59,515125,525125,525125,75.229228785383057243,0.00287234450300389
60,525133,535133,535133,75.22657284438548686,0.0026559409975988
61,535138,545138,545138,75.225084867584527615,0.00148797680100188
62,545144,555144,555144,75.223407143908175954,0.00167772367629482
63,555149,562661,562661,75.221921485876478641,0.00148565803169731
64,562665,568030,568030,75.219378400097753001,0.00254308577871143
65,568035,576515,576515,75.218182584440484106,0.00119581565729732
66,576532,584620,584620,75.215606693818926942,0.0025758906215998
67,584625,592923,592923,75.2138953651597717,0.0017113286590984
68,592964,602964,602964,75.201418153652554111,0.0124772115072034
69,602969,612969,612969,75.200648293824585267,0.000769859827997266
70,612974,622974,622974,75.198877709102731615,0.00177058472189628
71,622979,632979,632979,75.197677772989777623,0.00119993611289715
72,632986,642986,642986,75.195330426219172182,0.00234734677060544
73,642994,652471,652471,75.194002141977946962,0.00132828424129627
74,652478,657786,657786,75.192281866038840121,0.00172027593910684
75,657793,667793,667793,75.190027581112730104,0.00225428492609581
76,667798,677798,677798,75.188626542693526744,0.00140103841920336
77,677803,685339,685339,75.187153129137016094,0.00147341355649644
78,685345,693789,693789,75.186029373102343243,0.00112375603470127
79,693796,701343,701343,75.184487076914450654,0.00154229618780732
80,701348,711348,711348,75.18368836871455585,0.000798708199894804
81,711355,721355,721355,75.181664425530584595,0.00202394318399968
82,721365,730674,730674,75.180129432424962488,0.00153499310559368
83,730680,740680,740680,75.178031279116311225,0.00209815330870811
84,740688,750688,750688,75.177724650508963578,0.000306628607290804
85,750694,760694,760694,75.176654634849967351,0.00107001565901044
86,760702,769245,769245,75.1753507775251677,0.00130385732479965
87,769252,778407,778407,75.173799971704653444,0.00155080582050005
88,778414,788124,788124,75.172835082163516063,0.000964889541194225
89,788130,798130,798130,75.171530855569784535,0.00130422659370311
90,798137,808137,808137,75.170539870892866929,0.000990984676903395
91,808139,818139,818139,75.169688009110700477,0.000851861782194874
92,818144,828144,828144,75.168952630604280785,0.000735378506405482
93,828150,838150,838150,75.167794034159200578,0.00115859644509442
94,838154,846507,846507,75.16521678513504412,0.00257724902419909
95,846512,856512,856512,75.163638354398926822,0.00157843073610309
96,856518,866518,866518,75.162767117674505357,0.000871236724393043
97,866524,874606,874606,75.161998576407796691,0.000768541266708667
98,874611,884611,884611,75.16109687943222184,0.000901696975603272
99,884616,889991,889991,75.160142237393841924,0.000954642038394127
100,889993,899993,899993,75.159984832589785242,0.000157404803999839
101,900000,909948,909948,75.159107039694802666,0.000877792894996787
102,909950,919950,919950,75.158947591203002503,0.000159448491800163
103,919957,929957,929957,75.158650829730348164,0.000296761472696971
104,929964,939964,939964,75.158161707757116687,0.000489121973203055
105,939970,949970,949970,75.157498524254648942,0.000663183502496167
106,949976,959976,959976,75.156506878824117734,0.000991645430502786
107,959984,969984,969984,75.156151823196296391,0.000355055627807133
108,969990,979990,979990,75.155360968217323148,0.000790854979001665
109,979997,989997,989997,75.154836739942382451,0.000524228274898064
110,990005,1000005,1000005,75.154312722674873726,0.000524017267494514
111,1000012,1010012,1010012,75.153645066744402925,0.000667655930499222
112,1010019,1020019,1020019,75.153099650381861352,0.000545416362498941
113,1020029,1030029,1030029,75.152944812146728282,0.000154838235204124
114,1030036,1040036,1040036,75.152535939213350957,0.00040887293330627
115,1040046,1050046,1050046,75.152382292352797322,0.000153646860596268
116,1050048,1060048,1060048,75.152566130394873767,0.000183838042104867
117,1060050,1070050,1070050,75.153349949030314292,0.000783818635397893
118,1070057,1080057,1080057,75.153658328489697737,0.000308379459397656
119,1080064,1090064,1090064,75.153893686774651428,0.000235358284996323
120,1090066,1100066,1100066,75.155066017276197954,0.00117233050150389
121,1100074,1110074,1110074,75.155720269586794302,0.000654252310596348
122,1110076,1120076,1120076,75.156099805737440533,0.000379536150603599
123,1120078,1130078,1130078,75.157105101713696627,0.00100529597629873
124,1130083,1140083,1140083,75.157223694288418869,0.000118592574708032
125,1140085,1150085,1150085,75.158356737312828955,0.00113304302439587
126,1150092,1160092,1160092,75.158971321021638801,0.000614583708795635
127,1160098,1170098,1170098,75.159703064844478604,0.000731743822910857
128,1170106,1180106,1180106,75.160910211996608155,0.00120714715208692
129,1180115,1190115,1190115,75.162141862910331724,0.00123165091370936
130,1190122,1200122,1200122,75.16347802246525589,0.00133615955499522
131,1200128,1210128,1210128,75.164951345334529265,0.00147332286920232
132,1210134,1220134,1220134,75.167048614117788929,0.0020972687833023
133,1220143,1230143,1230143,75.168787501860222733,0.00173888774239117
134,1230150,1240150,1240150,75.171084742756491437,0.00229724089631134
135,1240159,1250159,1250159,75.173255632804099946,0.0021708900475943
136,1250161,1260161,1260161,75.176868625308756577,0.00361299250469926
137,1260168,1270168,1270168,75.181068639552435684,0.00420001424359384
138,1270176,1280176,1280176,75.184875390567398767,0.00380675101500572
139,1280178,1290178,1290178,75.189504311914959089,0.00462892134760295
140,1290184,1300184,1300184,75.194663010756315202,0.00515869884129927
141,1300188,1310188,1310188,75.200536164403104067,0.00587315364680308
142,1310194,1320194,1320194,75.207858144780658449,0.00732198037759701
143,1320201,1330201,1330201,75.215389368781501389,0.00753122400080031
144,1330209,1340209,1340209,75.226334423624336978,0.010945054842793
145,1340213,1350213,1350213,75.239918065884140219,0.0135836422598032
146,1350220,1360220,1360220,76.258525505477948059,1.01860743959381
147,1360222,1370222,1370222,76.252570838476799508,0.00595466700110592
148,1370226,1380226,1380226,76.238623477304486187,0.0139473611722991
149,1380233,1390233,1390233,76.160711103012104672,0.0779123742923957
150,1390241,1400241,1400241,75.976821607014699111,0.183889495997406
151,1400248,1410248,1410248,75.957712474561787985,0.0191091324528969
152,1410253,1420253,1420253,75.955284190171667547,0.00242828439010623
153,1420259,1430259,1430259,75.952563125768804753,0.00272106440289122
154,1430264,1439053,1439053,75.949948287815914227,0.00261483795290474
155,1439059,1449059,1449059,75.947603776441454215,0.00234451137440317
156,1449066,1457684,1457684,75.945330069505217807,0.00227370693629325
157,1457690,1467690,1467690,75.942965755363474045,0.00236431414170113
158,1467695,1477695,1477695,75.940729607132197998,0.00223614823130447
159,1477701,1484501,1484501,75.938778751258666944,0.00195085587350263
160,1484514,1492396,1492396,75.934556539730124314,0.00422221152859947
161,1492403,1502403,1502403,75.932604516775043635,0.00195202295509489
162,1502407,1512407,1512407,75.930741672900126105,0.00186284387490332
163,1512413,1521029,1521029,75.928895589019489876,0.0018460838805936
164,1521039,1531039,1531039,75.925212817629173401,0.00368277139030226
165,1531044,1539294,1539294,75.923832500192474981,0.00138031743669842
166,1539301,1549301,1549301,75.922028525155255352,0.00180397503720542
167,1549308,1559308,1559308,75.920215468841945494,0.00181305631339512
168,1559315,1569315,1569315,75.918753821559135986,0.00146164728280951
169,1569321,1579321,1579321,75.917569670864324394,0.00118415069479738
170,1579329,1586427,1586427,75.916410059852992731,0.00115961101128903
171,1586433,1593869,1593869,75.91577466228608273,0.000635397566910001
172,1593875,1603875,1603875,75.914785438489957414,0.000989223796096894
173,1603881,1610373,1610373,75.913577296348933032,0.00120814214109544
174,1610381,1618698,1618698,75.912508755010222217,0.00106854133871082
175,1618704,1626806,1626806,75.911354915903757501,0.00115383910639366
176,1626813,1632052,1632052,75.910224134858879097,0.00113078104490683
177,1632059,1639689,1639689,75.909239835149975306,0.00098429970888958
178,1639695,1649695,1649695,75.908447940974056678,0.000791894175904417
179,1649702,1659702,1659702,75.906924730679094182,0.00152321029500513
180,1659707,1669707,1669707,75.906058491113711284,0.000866239565397109
181,1669709,1679155,1679155,75.905173460021458709,0.000885031092195732
182,1679162,1686621,1686621,75.904596795551867672,0.000576664469605248
183,1686626,1692034,1692034,75.904034425280258347,0.000562370271595114
184,1692040,1698059,1698059,75.903257135135575595,0.000777290144696963
185,1698065,1708065,1708065,75.902719353436665983,0.000537781698909612
186,1708071,1716519,1716519,75.902019202817342602,0.000700150619394435
187,1716527,1726527,1726527,75.901331755261068679,0.000687447556202869
188,1726533,1732833,1732833,75.900077238254851864,0.0012545170062026
189,1732835,1739611,1739611,75.899695971833509134,0.000381266421399573
190,1739616,1749616,1749616,75.898904568590779718,0.000791403242700994
191,1749624,1759624,1759624,75.898667789955155172,0.000236778635596124
192,1759634,1769634,1769634,75.898501689834802164,0.00016610012039564
193,1769636,1779636,1779636,75.898303399034659833,0.000198290800099699
194,1779639,1789639,1789639,75.898502617693054617,0.000199218658394784
195,1789641,1794031,1794031,75.898582436923078376,7.98192300095479e-05
196,1794034,1800783,1800783,75.898653902395750492,7.14654726863273e-05
197,1800785,1808766,1808766,75.898512137614247308,0.000141764781588449
198,1808769,1816408,1816408,75.898280678484809414,0.000231459129409473
199,1816410,1826410,1826410,75.897858488624336815,0.000422189860501021
200,1826413,1831547,1831547,75.897575479435047896,0.000283009189288919
201,1831553,1838667,1838667,75.89728468573707687,0.000290793697899971
202,1838669,1846728,1846728,75.896920840748975934,0.000363844988100936
203,1846733,1856733,1856733,75.896910993219989905,9.84752900023977e-06
204,1856743,1863866,1863866,75.896855946511550428,5.50467084110551e-05
205,1863868,1873868,1873868,75.89665666400446753,0.000199282507097109
206,1873874,1878857,1878857,75.896429685180095248,0.000226978824400703
207,1878858,1888858,1888858,75.896520262639782572,9.05774597015352e-05
208,1888862,1896307,1896307,75.896635574262518276,0.000115311622707281
209,1896311,1898430,1898430,75.896590966533167943,4.46077293076996e-05
210,1898433,1903380,1903380,75.89680404260315072,0.000213076069996987
211,1903384,1913384,1913384,75.896973376184959648,0.000169333581808928
212,1913387,1923387,1923387,75.896580282140590157,0.000393094044397913
213,1923388,1933388,1933388,75.896763684900051317,0.000183402759489582
214,1933395,1939683,1939683,75.896838402397179379,7.47174970996412e-05
215,1939685,1949685,1949685,75.896853285657229549,1.48832600075366e-05
216,1949690,1954680,1954680,75.897034414000302149,0.000181128343101022
217,1954684,1959172,1959172,75.896884572555080695,0.000149841445207244
218,1959177,1964037,1964037,75.897128414815739461,0.000243842260601923
219,1964042,1969652,1969652,75.897430753657914693,0.000302338842203653
220,1969654,1979654,1979654,75.89757645490838911,0.000145701250502839
221,1979658,1989658,1989658,75.8974985102186821,7.79446897070102e-05
222,1989660,1993022,1993022,75.897472278083753849,2.62321348998285e-05
223,1993024,2003024,2003024,75.897467900179421463,4.37790440344088e-06
224,2003025,2013025,2013025,75.897535489778192641,6.75895988138109e-05
225,2013027,2023027,2023027,75.897437092099366396,9.83976788120344e-05
226,2023029,2025114,2025114,75.897376699545020529,6.03925543884998e-05
227,2025115,2027548,2027548,75.897576874504210309,0.000200174959189781
228,2027551,2031667,2031667,75.897904088368449038,0.000327213864210307
229,2031673,2041673,2041673,75.897693077874080814,0.000211010494311381
230,2041676,2051676,2051676,75.89778042241620426,8.73445421092356e-05
231,2051678,2058204,2058204,75.897377051129467418,0.00040337128670842
232,2058205,2060310,2060310,75.897725836383955311,0.000348785254502104
233,2060313,2064290,2064290,75.897652071317779132,7.37650662046008e-05
234,2064295,2066649,2066649,75.897665044505615128,1.29731878075745e-05
235,2066651,2069168,2069168,75.897541428988589018,0.000123615516997688
236,2069169,2071271,2071271,75.897691566453588052,0.000150137464999034
237,2071277,2081277,2081277,75.897905813052503277,0.000214246598901013
238,2081280,2083580,2083580,75.897626444709530347,0.000279368343001352
239,2083581,2093581,2093581,75.897724655869964749,9.82111604912461e-05
240,2093584,2096925,2096925,75.897763932617678506,3.92767477137568e-05
241,2096929,2106929,2106929,75.897908424643659941,0.000144492025995646
242,2106930,2109133,2109133,75.897754323605042259,0.000154101038702947
243,2109134,2119134,2119134,75.897683732917315069,7.05906876987683e-05
244,2119135,2121616,2121616,75.897779689404302417,9.59564870015583e-05
245,2121618,2131618,2131618,75.897711835764937405,6.78536394076446e-05
246,2131619,2140606,2140606,75.897717636665362306,5.80090051016668e-06
247,2140610,2142773,2142773,75.897894676318287566,0.000177039652896838
248,2142777,2145031,2145031,75.897827677362869281,6.6998955404074e-05
249,2145032,2147244,2147244,75.897551713852209332,0.000275963510702582
250,2147245,2151967,2151967,75.897746648644002221,0.0001949347918071
251,2151970,2155882,2155882,75.897891368166668258,0.000144719522694459
252,2155884,2158289,2158289,75.897714950479453933,0.000176417687200114
253,2158293,2166029,2166029,75.897935597483623837,0.000220647004098851
254,2166031,2169841,2169841,75.89837774244419677,0.000442144960601354
255,2169847,2175680,2175680,75.898430222077962526,5.24796338083888e-05
256,2175683,2180537,2180537,75.898590772447036557,0.000160550368988766
257,2180539,2185452,2185452,75.898781861361513279,0.000191088914505144
258,2185454,2188284,2188284,75.898805288782966727,2.34274214960806e-05
259,2188288,2198288,2198288,75.899106211080166418,0.000300922297199691
260,2198291,2204014,2204014,75.899252830764169175,0.000146619684002758
261,2204017,2209356,2209356,75.899458692359701217,0.00020586159550362
262,2209360,2219360,2219360,75.899640087186327264,0.000181394826597625
263,2219362,2223089,2223089,75.89955541209808132,8.4675088203312e-05
264,2223092,2229622,2229622,75.899685505382294082,0.000130093284198551
265,2229624,2233925,2233925,75.900057663530972718,0.000372158148707058
266,2233930,2243930,2243930,75.900335724908870816,0.000278061377898098
267,2243935,2253935,2253935,75.900282657408368436,5.30675005023795e-05
268,2253939,2263939,2263939,75.900006456349743189,0.000276201058696302
269,2263941,2270060,2270060,75.900095785572275986,8.93292226038511e-05
270,2270062,2272978,2272978,75.900031240109967712,6.45454623082742e-05
271,2272979,2275150,2275150,75.900020216784980676,1.1023325001247e-05
272,2275151,2277424,2277424,75.900055484443413434,3.52676584043365e-05
273,2277425,2279496,2279496,75.900173823338107582,0.000118338894694148
274,2279498,2282237,2282237,75.900024935143392213,0.000148888194686947
275,2282238,2284407,2284407,75.900188013970037559,0.000163078826588503
276,2284410,2286951,2286951,75.900071364582274214,0.000116649387692291
277,2286952,2289014,2289014,75.900108556853581376,3.71922712929518e-05
278,2289016,2291148,2291148,75.899962707641876136,0.000145849211691029
279,2291149,2293235,2293235,75.899940976522117353,2.17311198014158e-05
280,2293236,2303236,2303236,75.900282498414398447,0.000341521892295304
281,2303238,2313238,2313238,75.900488782959897094,0.000206284545498647
282,2313243,2317634,2317634,75.900542512176400578,5.37292165034842e-05
283,2317638,2327638,2327638,75.900552466183910383,9.95400749559394e-06
284,2327639,2329958,2329958,75.900709340508441869,0.000156874324503065
285,2329960,2339960,2339960,75.900999013460832998,0.00028967295240534
286,2339966,2347059,2347059,75.900959426030524924,3.95874303080745e-05
287,2347060,2349453,2349453,75.90122724878523286,0.000267822754707936
288,2349456,2353163,2353163,75.90117844583500073,4.8802950203708e-05
289,2353167,2363167,2363167,75.901510964034486051,0.000332518199499532
290,2363171,2373171,2373171,75.901808558288678341,0.000297594254206501
