MinStep,CellMinStep,AtomMinStep,FinalStep,Energy,EDiff
1,56,10056,10056,90.755416528882250304,49909.2445834711
2,10061,20061,20061,86.467910312400647399,4.28750621648169
3,20141,30141,30141,77.689986005099285649,8.7779243073013
4,30183,40183,40183,72.750778048856901137,4.9392079562424
5,40226,50226,50226,63.233805087115278809,9.5169729617416
6,50443,60443,60443,66.37689499200895682,3.1430899048937
7,60606,70606,70606,61.304399069319750026,5.0724959226892
8,70609,80609,80609,60.149894071730322764,1.1545049975895
9,80612,90612,90612,59.066113509044882335,1.0837805626854
10,90684,100684,100684,61.953283447354081659,2.88716993830921
11,100730,110730,110730,60.092268221826664387,1.8610152255274
12,110835,120835,120835,55.190692942353940964,4.9015752794728
13,120935,130935,130935,52.98056059463530687,2.2101323477186
14,130987,140987,140987,53.210865678080935481,0.2303050834456
15,140992,150992,150992,53.137184783008763134,0.0736808950721013
16,150995,160995,160995,52.932223580925850115,0.204961202082899
17,161103,171103,171103,52.372558282184179745,0.559665298741699
18,171577,181577,181577,50.962925148867086023,1.4096331333171
19,181624,191624,191624,51.020830005004981444,0.0579048561379025
20,191640,201640,201640,52.276318145504959034,1.2554881405
21,201704,211704,211704,51.696459160809965283,0.579858984695001
22,211801,221801,221801,51.740168610326470855,0.0437094495164985
23,221854,231854,231854,51.558794754385729675,0.181373855940798
24,231895,241895,241895,50.052286924810701407,1.506507829575
25,242200,252200,252200,46.554157231570847841,3.4981296932399
26,252318,262318,262318,46.364167053186740475,0.1899901783841
27,262408,272408,272408,44.880186963735518191,1.4839800894512
28,272417,282417,282417,58.325956439049740254,13.4457694753142
29,282467,292467,292467,59.529450578941329297,1.2034941398916
30,292481,302481,302481,59.284876893391306396,0.244573685550002
31,302483,312483,312483,59.263046884190075048,0.0218300092011958
32,312492,322492,322492,58.929837299852025012,0.333209584338107
33,322563,332563,332563,57.809866066998566225,1.11997123285339
34,332580,342580,342580,57.906169761490090764,0.0963036944914961
35,342602,352602,352602,57.812304980758312922,0.0938647807317992
36,352625,362625,362625,57.747813024426541517,0.0644919563317998
37,362671,372671,372671,57.563428424883852585,0.184384599542597
38,372691,382691,382691,57.377126437637301137,0.186301987246601
39,382705,392705,392705,57.270572230917721868,0.106554206719601
40,392717,402717,402717,57.133479299522733186,0.137092931395003
41,402732,412732,412732,57.14464884604269912,0.0111695465200015
42,412762,422762,422762,56.993231437534241479,0.1514174085085
43,422768,432768,432768,56.968220732195661071,0.0250107053385022
44,432773,442773,442773,56.951672893610123083,0.0165478385855948
45,442775,452775,452775,56.879192893613854665,0.0724799999962045
46,452807,462807,462807,56.850719443360198113,0.0284734502536992
47,462813,472813,472813,56.842080928899484604,0.0086385144606993
48,472818,482818,482818,56.844858357825877704,0.00277742892640021
49,482865,492865,492865,56.857783523139296733,0.0129251653133977
50,492870,502870,502870,56.863118309897544123,0.00533478675820476
51,502905,512905,512905,57.226419954231985798,0.363301644334499
52,512909,522909,522909,57.210328061384750242,0.0160918928472
53,522913,532913,532913,57.200400036932244063,0.00992802445259855
54,532917,542917,542917,57.195400480191494808,0.00499955674069952
55,542921,552921,552921,57.1952548802393963,0.000145599952098507
56,552925,562925,562925,57.200643627139392322,0.00538874689999602
57,562934,572934,572934,56.904511652175536085,0.296131974963899
58,572948,582948,582948,57.001687490924410895,0.0971758387488961
59,582953,592953,592953,57.035598738781608574,0.0339112478572048
60,592961,602961,602961,56.989299614743188727,0.0462991240383985
61,602965,612965,612965,57.026019706572007806,0.0367200918287978
62,612973,622973,622973,57.066666604381552474,0.0406468978096015
63,622979,632979,632979,57.094886577646597914,0.0282199732649957
64,632986,642986,642986,57.101432684409203944,0.00654610676259892
65,642992,652992,652992,57.134885532300444311,0.0334528478912048
66,652994,662994,662994,57.122651067660740409,0.0122344646397039
67,662996,672996,672996,57.109700368995454767,0.0129506986652004
68,672999,682999,682999,57.142825242485656645,0.0331248734902019
69,683001,691893,691893,57.129058539899702396,0.0137667025859969
70,691958,701958,701958,72.710865267388953725,15.5818067274893
71,701962,711962,711962,72.742908190365028531,0.0320429229760038
72,711971,721971,721971,72.773238405701931697,0.0303302153369032
73,721976,731134,731134,72.800321237993443901,0.027082832291498
74,731138,741138,741138,72.826427466231194785,0.0261062282377935
75,741145,750894,750894,72.849034473411663271,0.0226070071805111
76,750900,760900,760900,72.870358313471257361,0.0213238400595941
77,760933,770933,770933,72.760056587945655338,0.110301725525602
78,770988,780988,780988,72.774921987500050591,0.0148653995543953
79,781013,791013,791013,72.76671219862581097,0.00820978887429646
80,791028,800191,800191,72.752515624795961457,0.0141965738297927
81,800201,810201,810201,72.77422580468895319,0.0217101798929917
82,810210,819529,819529,72.785366148421431376,0.0111403437324071
83,819544,829512,829512,72.765056236570799797,0.0203099118506032
84,829515,839515,839515,72.767614798270898291,0.00255856170009849
85,839524,846748,846748,72.778393869646038183,0.0107790713750973
86,846762,854022,854022,72.774168034125708004,0.00422583552030176
87,854038,863137,863137,72.752658695874401928,0.0215093382512919
88,863145,869351,869351,72.776308468591778933,0.0236497727173912
89,869366,879366,879366,72.716186339930516169,0.0601221286612912
90,879370,885637,885637,72.720302464680585786,0.00411612475009804
91,885644,891859,891859,72.747865719924178052,0.0275632552436065
92,891866,898830,898830,72.764051297530428997,0.0161855776061941
93,898847,906279,906279,72.764393163674768061,0.000341866144395908
94,906285,913780,913780,72.764949880335734633,0.000556716660909728
95,913796,920149,920149,72.757515140954822641,0.00743473938091199
96,920154,927581,927581,72.755698947531342924,0.00181619342349393
97,927612,937612,937612,72.76757521303500198,0.0118762655037017
98,937618,944343,944343,72.775208586791336529,0.00763337375629192
99,944362,951442,951442,72.750291558706408068,0.0249170280849
100,951449,958680,958680,72.753584158747273136,0.0032926000409077
101,958685,966907,966907,72.75299022254199599,0.000593936205305567
102,966910,973802,973802,72.750585515663729552,0.00240470687829486
103,973807,983807,983807,72.757686528807127502,0.00710101314339795
104,983812,990727,990727,72.756929386166589779,0.00075714264049509
105,990733,998638,998638,72.755972481673580887,0.000956904493008892
106,998642,1008380,1008380,72.753852593750309552,0.00211988792329976
107,1008387,1014744,1014744,72.753652907567087027,0.000199686183194103
108,1014750,1024750,1024750,72.751162268046940085,0.00249063952020379
109,1024755,1034755,1034755,72.748714800236442102,0.00244746781049798
110,1034762,1044762,1044762,72.745974627246326349,0.00274017299010154
111,1044769,1054769,1054769,72.735705043304804462,0.0102695839414935
112,1054776,1064776,1064776,72.731993189329187999,0.00371185397560225
113,1064786,1074786,1074786,72.729682829863705251,0.00231035946549696
114,1074791,1083813,1083813,72.725948410398345345,0.00373441946540254
115,1083819,1092333,1092333,72.729427453175205187,0.00347904277690247
116,1092337,1100146,1100146,72.72561436095497811,0.00381309222019866
117,1100150,1110150,1110150,72.720214801652176106,0.005399559302802
118,1110154,1119936,1119936,72.714129418146796979,0.00608538350540755
119,1119939,1129939,1129939,72.709647864161652819,0.00448155398510153
120,1129942,1138077,1138077,72.704998202682716624,0.00464966147899304
121,1138080,1148080,1148080,72.699231041680434373,0.00576716100229646
122,1148083,1156020,1156020,72.694012891641648366,0.00521815003880022
123,1156025,1166025,1166025,72.686762392441536917,0.00725049920011145
124,1166031,1176031,1176031,72.68104608998845606,0.00571630245299559
125,1176035,1186035,1186035,72.67542004572310077,0.00562604426539792
126,1186042,1196042,1196042,72.670406670803259885,0.00501337491979825
127,1196045,1206045,1206045,72.663383465573176068,0.00702320523009803
128,1206053,1214982,1214982,72.657916196044737944,0.00546726952850918
129,1214987,1222757,1222757,72.655504706986903329,0.00241148905779198
130,1222764,1232764,1232764,72.647897425830322504,0.00760728115660925
131,1232774,1242774,1242774,72.622110664406761771,0.0257867614234897
132,1242779,1252779,1252779,72.618140931349458356,0.00396973305730342
133,1252783,1262783,1262783,72.611618836538241339,0.00652209481130228
134,1262787,1272787,1272787,72.602527073614069764,0.00909176292410052
135,1272790,1282790,1282790,72.594723308900313441,0.00780376471379896
136,1282795,1292795,1292795,72.586249771586608404,0.00847353731370504
137,1292800,1302149,1302149,72.578698149319308186,0.00755162226730022
138,1302157,1312157,1312157,72.569928022965797254,0.00877012635349672
139,1312162,1322162,1322162,72.56245999584665185,0.00746802711910277
140,1322166,1332166,1332166,72.554740956256949858,0.00771903958980147
141,1332171,1342171,1342171,72.543245653270815865,0.0114953029860914
142,1342178,1352178,1352178,72.533776270432383626,0.00946938283840382
143,1352182,1360645,1360645,72.527201508201187607,0.00657476223119602
144,1360650,1370650,1370650,72.517653400989047441,0.00954810721219701
145,1370655,1380655,1380655,72.507852761262412855,0.00980063972660616
146,1380659,1390659,1390659,72.498557401178302939,0.00929536008409571
147,1390664,1400487,1400487,72.490622561739883167,0.00793483943840556
148,1400491,1410491,1410491,72.482242265877815157,0.00838029586209643
149,1410496,1420496,1420496,72.475005072618543522,0.00723719325930006
150,1420500,1430500,1430500,72.470242427440339839,0.00476264517820368
151,1430504,1439595,1439595,72.463073484964709792,0.00716894247560163
152,1439598,1449598,1449598,72.457126094545387218,0.00594739041929415
153,1449602,1459602,1459602,72.449457754180045299,0.00766834036539876
154,1459609,1469609,1469609,72.445787204331679732,0.00367054984830872
155,1469614,1479614,1479614,72.440986322400405584,0.00480088193128836
156,1479617,1489617,1489617,72.434789819524581844,0.00619650287580953
157,1489621,1498305,1498305,72.429247144245564982,0.00554267527900265
158,1498309,1508309,1508309,72.422837100058202964,0.00641004418739044
159,1508313,1517489,1517489,72.417048393052553479,0.00578870700560685
160,1517493,1527493,1527493,72.409590725862386762,0.00745766719019514
161,1527499,1537499,1537499,72.403411745800227095,0.0061789800622023
162,1537503,1547367,1547367,72.398453447294414786,0.0049582985057981
163,1547371,1557371,1557371,72.392440085644423675,0.00601336165000532
164,1557376,1567181,1567181,72.38713405271028023,0.00530603293410081
165,1567188,1577188,1577188,72.380537395337753992,0.00659665737249782
166,1577194,1587194,1587194,72.37152836279067003,0.00900903254709817
167,1587199,1597199,1597199,72.363718729612557468,0.00780963317809835
168,1597202,1605854,1605854,72.35978246442040529,0.00393626519219481
169,1605860,1615860,1615860,72.352042267103726658,0.00774019731670705
170,1615863,1624094,1624094,72.347786342952289829,0.0042559241513942
171,1624099,1634099,1634099,72.339272149937073664,0.00851419301520195
172,1634104,1644104,1644104,72.330839015959867311,0.00843313397720635
173,1644108,1653648,1653648,72.324220797626026069,0.00661821833389808
174,1653652,1663144,1663144,72.317822187878647355,0.00639860974739292
175,1663148,1673148,1673148,72.311051926285216496,0.00677026159340244
176,1673153,1683153,1683153,72.309217624416632475,0.00183430186859823
177,1683159,1692854,1692854,72.300102660356898809,0.00911496405970524
178,1692858,1701566,1701566,72.292637693042763658,0.00746496731409252
179,1701574,1711574,1711574,72.284723174190062878,0.00791451885270078
180,1711577,1721271,1721271,72.281076731902942356,0.00364644228720579
181,1721275,1728496,1728496,72.274754304072203581,0.00632242783069614
182,1728501,1736837,1736837,72.270129293929699088,0.00462501014250449
183,1736842,1746842,1746842,72.262589571970906377,0.00753972195879271
184,1746847,1755860,1755860,72.258522903170700147,0.00406666880020623
185,1755866,1765510,1765510,72.251633062447808697,0.00688984072290566
186,1765514,1775283,1775283,72.24464512757865009,0.00698793486908755
187,1775287,1785287,1785287,72.238270185053821137,0.00637494252490001
188,1785294,1794898,1794898,72.231188946523161576,0.00708123853060272
189,1794905,1804824,1804824,72.225603304022072848,0.00558564250110294
190,1804833,1813628,1813628,72.218071157666628324,0.00753214635550137
191,1813632,1822818,1822818,72.215023902224359631,0.00304725544219764
192,1822825,1832572,1832572,72.209404677808379347,0.00561922441600871
193,1832578,1841151,1841151,72.206004878230302779,0.00339979957809078
194,1841158,1850236,1850236,72.203196926941060951,0.0028079512891992
195,1850241,1858396,1858396,72.193340337598058909,0.00985658934300204
196,1858404,1868404,1868404,72.188201927974404271,0.00513840962369727
197,1868409,1873941,1873941,72.184846094404619521,0.00335583356979896
198,1873947,1881430,1881430,72.181481551036313249,0.00336454336830627
199,1881434,1889484,1889484,72.175941350586057865,0.00554020045019854
200,1889489,1897664,1897664,72.172539795310527211,0.00340155527560171
201,1897668,1905629,1905629,72.168890338454545486,0.00364945685599594
202,1905633,1915633,1915633,72.16129505968095259,0.00759527877350763
203,1915638,1922317,1922317,72.158163161766893268,0.00313189791410196
204,1922321,1931485,1931485,72.154683460674007733,0.00347970109289975
205,1931495,1940229,1940229,72.144714157342804128,0.00996930333118939
206,1940233,1947971,1947971,72.140767827614965313,0.00394632972781039
207,1947975,1956351,1956351,72.136123259137988839,0.00464456847699068
208,1956356,1965537,1965537,72.133624203102783667,0.00249905603520517
209,1965548,1973573,1973573,72.143168525244476541,0.00954432214170708
210,1973582,1982095,1982095,72.14580682210470286,0.0026382968601979
211,1982100,1988502,1988502,72.133753048727584201,0.0120537733771044
212,1988509,1998509,1998509,72.118815809348504331,0.0149372393790941
213,1998519,2004561,2004561,72.1383398160354119,0.0195240066868934
214,2004565,2010951,2010951,72.132784485306871147,0.00555533072849812
215,2010957,2018681,2018681,72.11814168424790239,0.0146428010589972
216,2018686,2025540,2025540,72.113836178791743237,0.00430550545620179
217,2025546,2034668,2034668,72.100763574456010474,0.0130726043357043
218,2034681,2042762,2042762,72.123397409565171756,0.0226338351092039
219,2042768,2051302,2051302,72.109023819822581913,0.0143735897426041
220,2051309,2058830,2058830,72.100030341183142468,0.00899347863949629
221,2058836,2067309,2067309,72.08982051033304117,0.0102098308501013
222,2067314,2075365,2075365,72.080920546492052381,0.00889996384090352
223,2075372,2084088,2084088,72.078433749739318159,0.00248679675279107
224,2084097,2091306,2091306,72.079640360562834189,0.00120661082350182
225,2091309,2096819,2096819,72.076069808493642199,0.0035705520692062
226,2096822,2106706,2106706,72.071906914869245497,0.0041628936243967
227,2106712,2116422,2116422,72.06263617146572642,0.00927074340350487
228,2116425,2124593,2124593,72.060750194410104541,0.00188597705559346
229,2124596,2132757,2132757,72.05871145621102869,0.00203873819910427
230,2132762,2139050,2139050,72.051822358753781828,0.00688909745720423
231,2139053,2145860,2145860,72.049918575187817282,0.00190378356599297
232,2145865,2152738,2152738,72.048021208866003917,0.00189736632179915
233,2152743,2161232,2161232,72.043469517611100628,0.00455169125490329
234,2161235,2170749,2170749,72.04248973419433355,0.000979783416795499
235,2170753,2178373,2178373,72.041263198648280763,0.00122653554601015
236,2178380,2184184,2184184,72.038577188555848352,0.00268601009248925
237,2184191,2193686,2193686,72.045902910555710719,0.00732572199989079
238,2193694,2202636,2202636,72.067929130428638018,0.0220262198728989
239,2202644,2209703,2209703,72.043373098794447174,0.0245560316341908
240,2209708,2217672,2217672,72.029268886414257622,0.0141042123801043
241,2217679,2224590,2224590,72.019259068300300441,0.0100098181139998
242,2224594,2231429,2231429,72.018585413158746178,0.000673655141596896
243,2231435,2237972,2237972,72.028403687583477222,0.0098182744248021
244,2237975,2242602,2242602,72.026790451448036379,0.0016132361355119
245,2242607,2248561,2248561,72.024393181103704364,0.00239727034428938
246,2248571,2255351,2255351,72.040143966936796005,0.0157507858330916
247,2255361,2262564,2262564,72.058990160103050471,0.0188461931662971
248,2262574,2269302,2269302,72.056250727728027528,0.002739432375094
249,2269306,2275556,2275556,72.050013994490015534,0.00623673323799778
250,2275562,2281002,2281002,72.044806609563011079,0.00520738492700445
251,2281006,2288633,2288633,72.037215606280184943,0.00759100328279771
252,2288639,2294820,2294820,72.031343651229789771,0.00587195505039517
253,2294828,2301403,2301403,72.033453739881593947,0.00211008865178997
254,2301409,2307334,2307334,72.042598683411497973,0.00914494352990403
255,2307346,2313470,2313470,72.044647760271558923,0.00204907686010358
256,2313476,2320085,2320085,72.042811845200901644,0.00183591507069991
257,2320089,2327332,2327332,72.02606861279176087,0.0167432324090981
258,2327337,2333158,2333158,72.028070717279220503,0.00200210448740279
259,2333165,2338666,2338666,72.027209231720391358,0.000861485558800723
260,2338674,2345487,2345487,72.025291411636729322,0.00191782008370467
261,2345489,2352507,2352507,72.023191290002500864,0.00210012163420004
262,2352513,2357100,2357100,72.020563956818520523,0.00262733318399455
263,2357106,2362893,2362893,72.017454260335313165,0.00310969648320736
264,2362902,2368645,2368645,72.016306679140583924,0.00114758119470082
265,2368650,2375407,2375407,72.014228567360873967,0.00207811177969575
266,2375414,2381364,2381364,72.009698338045907917,0.00453022931500868
267,2381371,2387794,2387794,72.006740252052082951,0.00295808599379654
268,2387801,2394254,2394254,71.98834597632992427,0.0183942757222013
269,2394260,2401596,2401596,71.983306313474741955,0.00503966285519653
270,2401606,2408720,2408720,71.98191708298280389,0.00138923049189543
271,2408727,2417078,2417078,71.968838804767941042,0.0130782782149055
272,2417083,2424037,2424037,71.959498036090508322,0.0093407686774043
273,2424044,2430816,2430816,71.956778690882799765,0.00271934520769435
274,2430821,2437175,2437175,71.953488914363987305,0.00328977651879825
275,2437181,2445321,2445321,71.946580989610097845,0.00690792475390367
276,2445335,2452578,2452578,71.950152989656700697,0.00357200004660285
277,2452583,2461254,2461254,71.947452413720029085,0.00270057593670003
278,2461260,2468861,2468861,71.9408143406381555,0.00663807308180253
279,2468867,2478867,2478867,71.935764055579568321,0.00505028505860139
280,2478872,2487133,2487133,71.934927986438665926,0.000836069140902396
281,2487138,2494406,2494406,71.930424344399639836,0.00450364203909714
282,2494411,2502955,2502955,71.926022402345125784,0.00440194205449984
283,2502963,2511657,2511657,71.925872355987735318,0.000150046357390465
284,2511666,2518494,2518494,71.954529606977317258,0.0286572509895962
285,2518499,2525057,2525057,71.94401874589679835,0.0105108610805047
286,2525063,2533100,2533100,71.929609951169453552,0.0144087947273022
287,2533107,2540462,2540462,71.924870920141742658,0.00473903102779616
288,2540468,2548165,2548165,71.922743374864211319,0.00212754527750292
289,2548171,2557239,2557239,71.917187654484507675,0.00555572037970364
290,2557244,2563333,2563333,71.915664520244888536,0.00152313423959072
291,2563341,2572327,2572327,71.909255604151681496,0.00640891609320704
292,2572336,2579699,2579699,71.90958704562153514,0.000331441469811011
293,2579706,2589004,2589004,71.904588245900384891,0.00499879972110762
294,2589009,2598916,2598916,71.898986112485289368,0.00560213341509552
