MinStep,CellMinStep,AtomMinStep,FinalStep,Energy,EDiff
1,245,10245,10245,79.219616333417533838,49920.7803836666
2,10253,20253,20253,73.330223442009042856,5.88939289140851
3,20270,30270,30270,71.136389559770918822,2.1938338822381
4,30276,40276,40276,71.1606176801912369,0.0242281204202897
5,40278,50278,50278,71.129652323455033525,0.0309653567361892
6,50280,60280,60280,71.112001747314579347,0.0176505761404115
7,60282,70282,70282,71.103025160441688968,0.00897658687289038
8,70285,80285,80285,71.099306811367839032,0.00371834907390678
9,80288,90288,90288,71.096845377929668075,0.0024614334380999
10,90293,100293,100293,71.09614060862155327,0.000704769308100595
11,100296,110296,110296,71.094873605293898322,0.00126700332769758
12,110298,120298,120298,71.094390750739535179,0.000482854554391565
13,120300,130300,130300,71.093350249885062908,0.00104050085440122
14,130303,134403,134403,71.092613926435902272,0.000736323449203269
15,134405,144405,144405,71.09179634378568835,0.000817582650199711
16,144408,154408,154408,71.090974368967593477,0.000821974818109084
17,154411,164260,164260,71.089512002135563762,0.00146236683198708
18,164264,174264,174264,71.088760233714822334,0.000751768420812482
19,174268,178714,178714,71.088083353032700984,0.000676880682092929
20,178716,188716,188716,71.087253215501775117,0.000830137530897446
21,188719,198719,198719,71.086378623340394256,0.000874592161409282
22,198723,208723,208723,71.085601563229118938,0.000777060111289529
23,208727,212748,212748,71.084970921586418058,0.00063064164270088
24,212750,219805,219805,71.083896099236227428,0.00107482235020484
25,219807,227321,227321,71.083220377298431458,0.00067572193779597
26,227326,233488,233488,71.082455500474367227,0.000764876824007388
27,233490,243490,243490,71.081606445548160877,0.000849054926192139
28,243493,249040,249040,71.080583746675841894,0.00102269887240425
29,249044,259044,259044,71.079390296904620072,0.0011934497711934
30,259048,269048,269048,71.07873741092014086,0.000652885984507634
31,269051,274402,274402,71.07820656298612505,0.000530847934001599
32,274405,280613,280613,71.077313010149651973,0.000893552836402023
33,280616,290616,290616,71.076567034639793974,0.000745975509900632
34,290618,298133,298133,71.075795284352977887,0.000771750286787665
35,298137,308137,308137,71.07492278640225436,0.000872497950709317
36,308139,318139,318139,71.074155829503098403,0.00076695689919859
37,318142,327469,327469,71.073341127779428916,0.000814701723697908
38,327472,333027,333027,71.07248902795522838,0.000852099824200536
39,333030,343030,343030,71.071576028212078313,0.000912999743093224
40,343034,348113,348113,71.070627246981118219,0.000948781231002727
41,348116,358116,358116,71.069751518626659958,0.000875728354401417
42,358119,363219,363219,71.068812772943644518,0.000938745683100706
43,363222,369448,369448,71.068075412889058384,0.000737360054500869
44,369452,379452,379452,71.067040782757530337,0.0010346301315991
45,379456,389456,389456,71.066275190133268325,0.000765592624205169
46,389460,399460,399460,71.065627315219373372,0.000647874913894952
47,399464,409464,409464,71.06521640262305084,0.000410912596308322
48,409467,414618,414618,71.064326727022844921,0.000889675600291184
49,414620,424620,424620,71.063432879777167273,0.000893847245606594
50,424622,428799,428799,71.062452575009089628,0.000980304768091855
51,428803,436046,436046,71.061144012446234797,0.00130856256289746
52,436048,440650,440650,71.060450636095694676,0.000693376350511699
53,440653,450653,450653,71.05960153519632172,0.000849100899401378
54,450655,457990,457990,71.058825380107904834,0.000776155088388464
55,457993,464880,464880,71.057960759623512104,0.000864620484406942
56,464885,474885,474885,71.056763339986076744,0.00119741963739273
57,474888,484888,484888,71.055759949176419354,0.00100339080970002
58,484892,494892,494892,71.054803968854386653,0.00095598032200428
59,494896,504896,504896,71.053995620918300347,0.000808347936100517
60,504902,514902,514902,71.053267928074930637,0.000727692843398131
61,514905,524905,524905,71.052285212114270507,0.000982715960603286
62,524909,534909,534909,71.051326994787103786,0.000958217327195143
63,534911,544911,544911,71.05046301473457504,0.000863980052500324
64,544915,550871,550871,71.049413658336590061,0.00104935639799919
65,550874,560874,560874,71.048531541326156002,0.000882117010405636
66,560877,570877,570877,71.047515894926263513,0.00101564639989249
67,570879,580879,580879,71.046700045370769772,0.000815849555507953
68,580882,590882,590882,71.045720432022378077,0.000979613348391695
69,590885,596649,596649,71.044782723327728036,0.000937708694706885
70,596651,602324,602324,71.043950900656426484,0.000831822671301552
71,602327,612327,612327,71.042961474618522288,0.000989426037904195
72,612331,622331,622331,71.042420200474907688,0.00054127414360039
73,622334,628412,628412,71.041539035483637576,0.000881164991298533
74,628417,638417,638417,71.040601710491714016,0.000937324991895139
75,638422,645682,645682,71.039455775904386314,0.00114593458729928
76,645685,649865,649865,71.038571510475918558,0.000884265428496178
77,649869,659869,659869,71.037532446441247203,0.00103906403469978
78,659871,666576,666576,71.036445848122880875,0.00108659831830948
79,666578,672020,672020,71.035531479567168844,0.00091436855569782
80,672024,682024,682024,71.034643626531916993,0.000887853035294484
81,682027,692027,692027,71.033415718495760416,0.00122790803609973
82,692031,702031,702031,71.032307914114497294,0.00110780438130575
83,702034,707899,707899,71.03145052889428257,0.000857385220200513
84,707902,717902,717902,71.030540784800095366,0.000909744094201415
85,717904,727904,727904,71.029427495935962611,0.00111328886409012
86,727907,733616,733616,71.028596008887518565,0.00083148704850089
87,733618,738371,738371,71.027684676173777234,0.000911332713698698
88,738378,744591,744591,71.026626275536131061,0.00105840063770302
89,744593,754593,754593,71.02553996242316714,0.00108631311290708
90,754599,760435,760435,71.024738363068607327,0.000801599354602445
91,760439,770439,770439,71.023797451185245677,0.000940911883390072
92,770443,777733,777733,71.022854754725344151,0.000942696459901526
93,777735,783569,783569,71.022164957484321235,0.000689797240994494
94,783571,788018,788018,71.021028972359474096,0.00113598512480451
95,788020,798020,798020,71.01993745950785808,0.00109151285160181
96,798023,808023,808023,71.019119283054919833,0.00081817645299509
97,808025,818025,818025,71.018106427543713721,0.00101285551120611
98,818027,823575,823575,71.017119650661996388,0.000986776881703122
99,823578,833578,833578,71.01601764793453242,0.00110200272749239
100,833584,843584,843584,71.015049363524497039,0.000968284410006959
101,843587,849810,849810,71.013961420781711809,0.00108794274279944
102,849812,855532,855532,71.01263770944288467,0.00132371133879872
103,855534,862409,862409,71.011642668206263806,0.000995041236592442
104,862411,872411,872411,71.010418116568715163,0.00122455163760549
105,872413,882413,882413,71.009290987931350969,0.00112712863730735
106,882415,892415,892415,71.008304283717265548,0.000986704214099632
107,892417,896776,896776,71.007203625288255466,0.00110065842899587
108,896778,901431,901431,71.006139265981403241,0.00106435930689486
109,901433,907231,907231,71.005279098038045049,0.000860167943400825
110,907235,911856,911856,71.004193067763523572,0.00108603027450727
111,911860,921860,921860,71.003054514559934773,0.0011385532035888
112,921863,927227,927227,71.002164772407169835,0.000889742152708095
113,927229,937229,937229,71.001180486418675741,0.000984285988494094
114,937232,947232,947232,71.000127858657151592,0.00105262776150994
115,947236,952474,952474,70.998929761832386021,0.00119809682479399
116,952477,961215,961215,70.99781459815963558,0.00111516367280728
117,961220,971220,971220,70.996788749423146214,0.00102584873648937
118,971223,981223,981223,70.995549693203571451,0.00123905621950371
119,981225,991225,991225,70.994392789643612218,0.00115690356000187
120,991229,1001229,1001229,70.99336287494394071,0.00102991469969993
121,1001231,1011231,1011231,70.992158848312243435,0.00120402663169727
122,1011234,1015981,1015981,70.991492768600522822,0.000666079711706402
123,1015983,1025983,1025983,70.990434931378047168,0.00105783722248987
124,1025986,1035986,1035986,70.989508306335409316,0.00092662504260943
125,1035989,1045989,1045989,70.988453884841291597,0.0010544214940893
126,1045991,1055991,1055991,70.987312988715032702,0.00114089612630153
127,1055993,1065993,1065993,70.98634242280887463,0.000970565906101228
128,1065997,1075997,1075997,70.984945083962131207,0.00139733884680027
129,1076000,1082148,1082148,70.983928649992748205,0.00101643396939721
130,1082153,1092153,1092153,70.982926746065885482,0.00100190392680588
131,1092156,1102156,1102156,70.98187894020514932,0.00104780586079301
132,1102158,1112158,1112158,70.980876300694546899,0.00100263951060242
133,1112161,1122161,1122161,70.979729958244803356,0.00114634244970091
134,1122163,1132163,1132163,70.978780078063479664,0.000949880181309481
135,1132166,1137657,1137657,70.97780276360261098,0.000977314460897105
136,1137659,1147659,1147659,70.976836807241980409,0.000965956360602149
137,1147661,1154548,1154548,70.975836226898977088,0.00100058034298911
138,1154550,1164550,1164550,70.975002189250275819,0.000834037648701269
139,1164553,1174553,1174553,70.97406260067458561,0.00093958857570442
140,1174555,1184555,1184555,70.973219105011594365,0.000843495663005456
141,1184558,1194558,1194558,70.972331016290794992,0.000888088720799374
142,1194561,1204561,1204561,70.971437516182177774,0.000893500108588796
143,1204563,1210170,1210170,70.970626392488711076,0.00081112369350933
144,1210172,1214744,1214744,70.969618630552830041,0.00100776193589525
145,1214747,1224747,1224747,70.968758932987682897,0.000859697565104511
146,1224751,1234751,1234751,70.96771359310490368,0.00104533988279343
147,1234756,1240442,1240442,70.966601618940970297,0.00111197416390496
148,1240445,1245768,1245768,70.965669866319913694,0.000931752621099236
149,1245771,1250181,1250181,70.964661428639701057,0.00100843768019843
150,1250183,1256729,1256729,70.963705392060717259,0.00095603657899801
151,1256732,1266732,1266732,70.962783454549224871,0.000921937511506599
152,1266734,1276734,1276734,70.961757694692451537,0.00102575985670228
153,1276737,1286737,1286737,70.960665098371080717,0.00109259632139924
154,1286739,1291976,1291976,70.959677551910786519,0.000987546460294197
155,1291979,1297602,1297602,70.958600646013593405,0.00107690589720733
156,1297605,1302925,1302925,70.957577865421271213,0.00102278059229377
157,1302928,1308497,1308497,70.956334543070255449,0.00124332235100155
158,1308500,1318500,1318500,70.955490411507994963,0.000844131562303119
159,1318503,1328503,1328503,70.9545457136204476,0.000944697887589996
160,1328509,1338509,1338509,70.953974267184676705,0.000571446435699841
161,1338511,1348511,1348511,70.953098733402896414,0.000875533781808713
162,1348515,1358515,1358515,70.9521429305304423,0.000955802872496747
163,1358518,1368468,1368468,70.951436657386850015,0.000706273143492808
164,1368470,1378470,1378470,70.950880187061315496,0.000556470325605574
165,1378473,1382932,1382932,70.949653823016802789,0.0012263640444985
166,1382934,1392934,1392934,70.948792912458813475,0.000860910558003525
167,1392937,1397678,1397678,70.947925916276830094,0.000866996181997592
168,1397681,1407681,1407681,70.947052251881203233,0.000873664395598439
169,1407683,1417683,1417683,70.945907063555324612,0.00114518832590704
170,1417686,1422990,1422990,70.944983045085223239,0.000924018470101373
171,1422992,1432992,1432992,70.943968472915969414,0.00101457216919698
172,1432994,1442994,1442994,70.9433003002721847,0.000668172643798925
173,1442996,1452996,1452996,70.942356112271355073,0.000944188000801205
174,1452999,1458727,1458727,70.941615913860701426,0.00074019841069628
175,1458731,1468731,1468731,70.940784054446766049,0.000831859413906955
176,1468734,1478734,1478734,70.940179797565434683,0.00060425688138821
177,1478737,1482790,1482790,70.939318665109837525,0.000861132455611369
178,1482792,1491903,1491903,70.938547887706079109,0.000770777403701572
179,1491910,1501910,1501910,70.937782794304311551,0.00076509340179598
180,1501913,1511913,1511913,70.937019323859303199,0.000763470444994141
181,1511915,1517478,1517478,70.936166307801244102,0.00085301605810173
182,1517480,1522111,1522111,70.935748030385738616,0.000418277415505486
183,1522113,1526459,1526459,70.935072788975148228,0.000675241410590388
184,1526462,1532879,1532879,70.934190833721714853,0.000881955253404954
185,1532882,1538496,1538496,70.933542146993005417,0.000648686728695225
186,1538498,1543550,1543550,70.932643677387915204,0.000898469605104424
187,1543553,1553553,1553553,70.932016114756436309,0.000627562631507317
188,1553556,1559354,1559354,70.930895307778854431,0.00112080697749661
189,1559356,1564101,1564101,70.930124658722306208,0.000770649056590855
190,1564103,1574103,1574103,70.929345787683772073,0.000778871038505713
191,1574105,1579438,1579438,70.928575266889865247,0.000770520793906826
192,1579441,1586910,1586910,70.927566381848350829,0.00100888504150021
193,1586912,1592444,1592444,70.927086533213696384,0.000479848634697078
194,1592448,1602448,1602448,70.926308837925887474,0.0007776952877947
195,1602451,1612451,1612451,70.925087033132271586,0.00122180479360168
196,1612454,1618476,1618476,70.924431565189976823,0.000655467942294763
197,1618478,1628478,1628478,70.923502230192283946,0.000929334997707087
198,1628480,1638480,1638480,70.922982910709166049,0.000519319483103686
199,1638482,1648482,1648482,70.922233632382514656,0.000749278326694025
200,1648485,1658485,1658485,70.921234210603316228,0.000999421779198428
201,1658488,1668488,1668488,70.92039143765254039,0.00084277295080426
202,1668492,1678492,1678492,70.919528168236880106,0.00086326941560344
203,1678495,1688495,1688495,70.918683849173675071,0.000844319063190824
204,1688500,1698500,1698500,70.918089203847372914,0.000594645326302157
205,1698503,1704127,1704127,70.917529215488670502,0.000559988358702412
206,1704131,1709166,1709166,70.917198927364097472,0.000330288124601452
207,1709171,1719171,1719171,70.916741330810282307,0.000457596553800954
208,1719173,1729143,1729143,70.91582751711753474,0.0009138136927902
209,1729145,1734782,1734782,70.915053621983915377,0.000773895133605151
210,1734785,1744785,1744785,70.914151990100151579,0.000901631883706955
211,1744789,1749610,1749610,70.913444030700787835,0.000707959399392166
212,1749612,1754552,1754552,70.912735135829336741,0.000708894871507937
213,1754554,1760157,1760157,70.912158308437497567,0.000576827391796542
214,1760162,1770162,1770162,70.911416715498219787,0.000741592939291991
215,1770164,1776541,1776541,70.910675693501900696,0.00074102199630488
216,1776546,1781028,1781028,70.909844953135774404,0.000830740366097871
217,1781032,1785899,1785899,70.909093121376443491,0.000751831759401966
218,1785903,1792341,1792341,70.908171972116292636,0.000921149260094012
219,1792344,1798103,1798103,70.907382484501638942,0.000789487614710538
220,1798105,1808105,1808105,70.906640539963007086,0.000741944538589223
221,1808107,1813259,1813259,70.906003864240034318,0.00063667572300119
222,1813261,1823261,1823261,70.90528861247460668,0.000715251765399216
223,1823266,1829015,1829015,70.904493517288884163,0.000795095185708306
224,1829018,1834819,1834819,70.903722561211296238,0.000770956077602136
225,1834821,1839664,1839664,70.902861432980188283,0.000861128231093744
226,1839666,1849666,1849666,70.902183299737686184,0.000678133242502099
227,1849668,1859668,1859668,70.901351670960394813,0.000831628777305582
228,1859671,1869671,1869671,70.90073257111052385,0.000619099849899385
229,1869673,1879673,1879673,70.89993719020951346,0.000795380900996179
230,1879679,1889679,1889679,70.899370012404347108,0.000567177805194774
231,1889683,1899683,1899683,70.898852645189379018,0.000517367214911246
232,1899686,1905594,1905594,70.898296658989366392,0.000555986199998415
233,1905596,1915596,1915596,70.897584136899865825,0.000712522089500567
234,1915598,1920659,1920659,70.89681445551227057,0.000769681387595256
235,1920662,1925892,1925892,70.896071387116123219,0.000743068396204194
236,1925895,1933019,1933019,70.895336710130251845,0.00073467698580032
237,1933022,1937653,1937653,70.894644260321484808,0.000692449808795459
238,1937656,1944151,1944151,70.893961436782518604,0.000682823538994626
239,1944153,1954153,1954153,70.893259379312652868,0.000702057469808892
240,1954158,1963454,1963454,70.892607939744621603,0.000651439568102319
241,1963456,1973456,1973456,70.892030345518264767,0.000577594226299993
242,1973460,1983460,1983460,70.891290409001229023,0.000739936517092588
243,1983465,1993465,1993465,70.890780298638290446,0.000510110362895944
244,1993467,1999082,1999082,70.889953422597614008,0.00082687604070486
245,1999085,2009085,2009085,70.88925430864965449,0.000699113947902674
246,2009087,2019087,2019087,70.888530244252692114,0.000724064396990798
247,2019091,2028195,2028195,70.887951725397016389,0.000578518855704147
248,2028196,2030223,2030223,70.887923731268571714,2.79941284020424e-05
249,2030224,2036303,2036303,70.888018740949902963,9.50096813028267e-05
250,2036306,2046306,2046306,70.887751642600122182,0.000267098349809203
251,2046310,2056310,2056310,70.887031063291800592,0.000720579308293168
252,2056312,2062090,2062090,70.886479230241420169,0.000551833050394634
253,2062092,2072092,2072092,70.885719314900867971,0.000759915340509565
254,2072096,2082096,2082096,70.88502052103605422,0.000698793864799541
255,2082098,2092098,2092098,70.884307633176746322,0.000712887859393163
256,2092101,2102101,2102101,70.883573511783040999,0.000734121393705323
257,2102105,2107634,2107634,70.883085756183220383,0.000487755599792195
258,2107637,2117637,2117637,70.882362446515017496,0.000723309668202887
259,2117640,2127640,2127640,70.881742540458319013,0.000619906056698483
260,2127642,2137642,2137642,70.881034560684440748,0.000707979773906686
261,2137644,2147644,2147644,70.880195306242612219,0.000839254441800108
262,2147648,2153215,2153215,70.879563857830987672,0.000631448411596125
263,2153219,2163219,2163219,70.879016465307756789,0.000547392523202461
264,2163222,2168853,2168853,70.878355608280841693,0.000660857027000361
265,2168855,2178855,2178855,70.877802100408999308,0.000553507871799752
266,2178861,2188861,2188861,70.877264674018348956,0.000537426390692985
267,2188865,2198865,2198865,70.876642188673656619,0.000622485344607071
268,2198867,2208867,2208867,70.875898296372241703,0.000743892301500182
269,2208870,2218870,2218870,70.875421055740957854,0.000477240631198583
270,2218872,2227167,2227167,70.874755243020970852,0.000665812720001213
271,2227170,2232376,2232376,70.874035915651290907,0.000719327369694156
272,2232379,2242379,2242379,70.873443987442399816,0.000591928208905301
273,2242381,2247645,2247645,70.872637077085769874,0.00080691035660152
274,2247648,2254873,2254873,70.871869429914013949,0.000767647171798558
275,2254876,2264876,2264876,70.871301089548495611,0.000568340365504127
276,2264878,2274878,2274878,70.870650816510377012,0.000650273038090177
277,2274881,2279783,2279783,70.869963975716373739,0.000686840794003274
278,2279787,2285350,2285350,70.869637532951358594,0.000326442765000934
279,2285353,2289944,2289944,70.869164970594013653,0.000472562357401785
280,2289948,2299948,2299948,70.868451236846212282,0.000713733747801371
281,2299950,2309950,2309950,70.867766968802442307,0.000684268043798397
282,2309953,2319953,2319953,70.867122577636450842,0.0006443911659062
283,2319956,2329956,2329956,70.866477116554889903,0.00064546108158936
284,2329959,2339959,2339959,70.865918710032445915,0.000558406522500832
285,2339963,2344917,2344917,70.865109672074282798,0.000809037958106273
286,2344920,2354920,2354920,70.864487744101339217,0.000621927973000425
287,2354922,2364922,2364922,70.863934299305839204,0.000553444795500013
288,2364926,2374926,2374926,70.863449665815281264,0.000484633490501096
289,2374929,2384929,2384929,70.862925586513767939,0.000524079301499114
290,2384934,2394934,2394934,70.862486462515306584,0.000439123998489777
